INDEX VERSION 1.134+C:\Users\apiramanayagam\KhelmartPilotProject\.metadata\.plugins\org.eclipse.jdt.core
1349937182.index
1049004476.index
1252818435.index
1328479077.index
2605241250.index
2997286625.index
4159770405.index
1870766655.index
3899398939.index
1879203528.index
2488096625.index
2258143237.index
3499475603.index
2754505773.index
2964681618.index
178822061.index
1250332455.index
3418176477.index
1459437419.index
3743489505.index
4249922899.index
2295458571.index
3951043840.index
3048787254.index
3133683336.index
1736123292.index
1463854587.index
3854423392.index
3584917046.index
1709510036.index
3229367997.index
3279188078.index
3807040142.index
3351224804.index
3752223889.index
225878819.index
3842518060.index
4143669473.index
1069058213.index
3836545359.index
3443212048.index
1498649580.index
321957436.index
1333632517.index
1461382244.index
833927761.index
3044873463.index
990127505.index
2511145018.index
1543546342.index
2287752697.index
3932023242.index
1569797745.index
1554338116.index
1090257410.index
2816665967.index
1833050558.index
1284984219.index
2683856550.index
1952384052.index
1642836118.index
1842794798.index
1756612084.index
4112884520.index
3601292883.index
2234302408.index
3571789111.index
3678581235.index
863540964.index
387403514.index
2348613393.index
3334906225.index
2735802083.index
3245524370.index
2588055879.index
3870971182.index
559507823.index
4275473733.index
1284402033.index
2755091808.index
1012699936.index
1381078162.index
3577073486.index
4244269499.index
85962090.index
4065252181.index
1603990926.index
1075922469.index
2152407032.index
217775577.index
2025641492.index
211591461.index
1003109078.index
4178113757.index
2827493722.index
3621012188.index
2040727875.index
843435246.index
2245078748.index
506154996.index
3990120657.index
530814472.index
390601096.index
880949116.index
2575722745.index
1969234991.index
3256717359.index
849846256.index
3887021115.index
1865797976.index
